 # T[K], E [erg]
   1.00000000000000000000000000000000000         4.15034499015329089377141282118410094E-0020
   2.29119412941961307538358905937291530         2.20478687929940555279540347766500478E-0019
   3.58238825883922615076717811874583060         5.50048665701601991420157866434940624E-0019
   4.87358238825883922615076717811874591         1.04733760433599169101417059816381277E-0018
   6.16477651767845230153435623749166121         1.73700553827749671079803923824435229E-0018
   7.45597064709806537691794529686457651         2.65124384524556937964370611131545466E-0018
   8.74716477651767845230153435623749181         3.82977505296094722594069459521358805E-0018
   10.0383589059372915276851234156104063         5.31985280035367775831448228731448252E-0018
   11.3295530353569046030687124749833224         7.17626182587662125368458572683858268E-0018
   12.6207471647765176784523015343562385         9.46131827129587074310060714920312553E-0018
   13.9119412941961307538358905937291530         1.22448685667148325052301221289598458E-0017
   15.2031354236157438292194796531020676         1.56042909228955004646312430186657922E-0017
   16.4943295530353569046030687124749836         1.96244942614101727220544676979477384E-0017
   17.7855236824549699799866577718478997         2.43979176671003199464328175076481403E-0017
   19.0767178118745830553702468312208127         3.00245274561893603618810112172896328E-0017
   20.3679119412941961307538358905937288         3.66118082251276156208496234259368511E-0017
   21.6591060707138092061374249499666448         4.42747402742786481501115995474577229E-0017
   22.9503002001334222815210140093395609         5.31357509259527853506238816116549851E-0017
   24.2414943295530353569046030687124770         6.33246223006641831949545669792509958E-0017
   25.5326884589726484322881921280853900         7.49783344624235417109545669876187066E-0017
   26.8238825883922615076717811874583060         8.82408217035117901436139470063022633E-0017
   28.1150767178118745830553702468312221         1.03262625093162819333927590463460535E-0016
   29.4062708472314876584389593062041351         1.20200406392835804244754495957516791E-0016
   30.6974649766511007338225483655770512         1.39216363066906213728619757216352791E-0016
   31.9886591060707138092061374249499672         1.60477482791402255491995582051024197E-0016
   33.2798532354903268845897264843228802         1.84154691432796218481910265779666223E-0016
   34.5710473649099399599733155436957994         2.10421893030494313554911794504551990E-0016
   35.8622414943295530353569046030687124         2.39454926578602250424540842558937903E-0016
   37.1534356237491661107404936624416254         2.71430465349817347639202937690723613E-0016
   38.4446297531687791861240827218145445         3.06524886300225810221825253704418237E-0016
   39.7358238825883922615076717811874575         3.44913137054784603675940209436426744E-0016
   41.0270180120080053368912608405603767         3.86767626415092806753971240311080967E-0016
   42.3182121414276184122748498999332897         4.32257140387944664005471206374952310E-0016
   43.6094062708472314876584389593062027         4.81545861636225673612984698451517037E-0016
   44.9006004002668445630420280186791218         5.34792480588520648607638651077999354E-0016
   46.1917945296864576384256170780520348         5.92149331305302190215394737298121312E-0016
   47.4829886591060707138092061374249540         6.53761684792235689447325264094361488E-0016
   48.7741827885256837891927951967978669         7.19767133890170997997422022967677017E-0016
   50.0653769179452968645763842561707799         7.90295085398664097338712157416014829E-0016
   51.3565710473649099399599733155436991         8.65466358016607399780946094900563727E-0016
   52.6477651767845230153435623749166121         9.45392882484228083476152153767087132E-0016
   53.9389593062041360907271514342895251         1.03017749858351051759678599602737133E-0015
   55.2301534356237491661107404936624442         1.11991384236810046260431391712898530E-0015
   56.5213475650433622414943295530353572         1.21468631610509083230818029408703612E-0015
   57.8125416944629753168779186124082702         1.31457013286897390500718372868019371E-0015
   59.1037358238825883922615076717811894         1.41963142747931736149060369039021428E-0015
   60.3949299533022014676450967311541024         1.52992742546616600406246359104659926E-0015
   61.6861240827218145430286857905270215         1.64550666193174303213334347248895232E-0015
   62.9773182121414276184122748498999345         1.76640924250922788769265380900422148E-0015
   64.2685123415610406937958639092728475         1.89266713905999539648645425961872200E-0015
   65.5597064709806537691794529686457605         2.02430451326599621357043142646264233E-0015
   66.8509006004002668445630420280186858         2.16133806183563511402530860994414230E-0015
   68.1420947298198799199466310873915988         2.30377737762634333852619584773408814E-0015
   69.4332888592394929953302201467645118         2.45162532157645668397465152253751552E-0015
   70.7244829886591060707138092061374248         2.60487840091851954038798946767726300E-0015
   72.0156771180787191460973982655103378         2.76352714970481081880639701949676204E-0015
   73.3068712474983322214809873248832508         2.92755650820582563945452300752934475E-0015
   74.5980653769179452968645763842561761         3.09694619823825866538717293348160614E-0015
   75.8892595063375583722481654436290891         3.27167109193739108560890916040175372E-0015
   77.1804536357571714476317545030020020         3.45170157190800379552348662353491913E-0015
   78.4716477651767845230153435623749150         3.63700388106763990294778649233068379E-0015
   79.7628418945963975983989326217478280         3.82754046083682763953090890409208076E-0015
   81.0540360240160106737825216811207533         4.02327027663409380654140047327065361E-0015
   82.3452301534356237491661107404936663         4.22414912990111672613232082257971276E-0015
   83.6364242828552368245496997998665793         4.43012995611740760917358340117614065E-0015
   84.9276184122748498999332888592394923         4.64116310846690593854404400382658848E-0015
   86.2188125416944629753168779186124053         4.85719662699336891053078067297064017E-0015
   87.5100066711140760507004669779853306         5.07817649322998932934977189280511790E-0015
   88.8012008005336891260840560373582436         5.30404687041381037341629539827113569E-0015
   90.0923949299533022014676450967311566         5.53475032949965022133233794818249386E-0015
   91.3835890593729152768512341561040696         5.77022806127371398146740791470705433E-0015
   92.6747831887925283522348232154769826         6.01042007493602098490690980474475370E-0015
   93.9659773182121414276184122748499079         6.25526538357522273277334312932758921E-0015
   95.2571714476317545030020013342228209         6.50470217700117935101958306573709605E-0015
   96.5483655770513675783855903935957339         6.75866798243148656019542043531628034E-0015
   97.8395597064709806537691794529686469         7.01709981354952788456991236853238740E-0015
   99.1307538358905937291527685123415599         7.27993430846494174371653106284542502E-0015
   100.421947965310206804536357571714473         7.54710785711386839125139816905621651E-0015
   101.713142094729819879919946631087398         7.81855671863706929139766090376712152E-0015
   103.004336224149432955303535690460311         8.09421712926995690635216839242848758E-0015
   104.295530353569046030687124749833224         8.37402540127058515774564925240314625E-0015
   105.586724482988659106070713809206137         8.65791801340047301414923143970639239E-0015
   106.877918612408272181454302868579050         8.94583169345941247298867719243855303E-0015
   108.169112741827885256837891927951975         9.23770349335970761773355099436803581E-0015
   109.460306871247498332221480987324888         9.53347085720808563661190548541930688E-0015
   110.751501000667111407605070046697801         9.83307168284522652270284068016124381E-0015
   112.042695130086724482988659106070714         1.01364443772738269044486378153166923E-0014
   113.333889259506337558372248165443627         1.04435279063866419433417038421972243E-0014
   114.625083388925950633755837224816540         1.07542618393862864785476399454416975E-0014
   115.916277518345563709139426284189466         1.10685863882689296577720636079727241E-0014
   117.207471647765176784523015343562379         1.13864424427245566452839375262943875E-0014
   118.498665777184789859906604402935292         1.17077716007873353331941095768217134E-0014
   119.789859906604402935290193462308205         1.20325161955509264985067754424792551E-0014
   121.081054036024016010673782521681118         1.23606193182454000667036318106460602E-0014
   122.372248165443629086057371581054043         1.26920248379548352884499541285226236E-0014
   123.663442294863242161440960640426956         1.30266774182377386262324082130126108E-0014
   124.954636424282855236824549699799869         1.33645225308961452166133367216244138E-0014
   126.245830553702468312208138759172782         1.37055064671237007751708166255369338E-0014
   127.537024683122081387591727818545695         1.40495763462481632294459182727976036E-0014
   128.828218812541694462975316877918608         1.43966801222696210656770512664834992E-0014
   130.119412941961307538358905937291521         1.47467665883822951225609233184573760E-0014
   131.410607071380920613742494996664434         1.50997853796550633365284135473139359E-0014
   132.701801200800533689126084056037372         1.54556869740338100571898901492511126E-0014
   133.992995330220146764509673115410285         1.58144226918173356398367036959470812E-0014
   135.284189459639759839893262174783198         1.61759446937478478557762090268418474E-0014
   136.575383589059372915276851234156111         1.65402059778469718574634165354292699E-0014
   137.866577718478985990660440293529024         1.69071603751187360519263689458035799E-0014
   139.157771847898599066044029352901937         1.72767625442320922743802565842375492E-0014
   140.448965977318212141427618412274850         1.76489679652871844792379977703819774E-0014
   141.740160106737825216811207471647763         1.80237329327617648555801253552807555E-0014
   143.031354236157438292194796531020676         1.84010145477268439064246550640567242E-0014
   144.322548365577051367578385590393589         1.87807707094138259187963415182417099E-0014
   145.613742494996664442961974649766502         1.91629601062089981321261125323806058E-0014
   146.904936624416277518345563709139439         1.95475422061452860985842669038361028E-0014
   148.196130753835890593729152768512352         1.99344772469556352259749829272179626E-0014
   149.487324883255503669112741827885265         2.03237262257472060894303842958678035E-0014
   150.778519012675116744496330887258178         2.07152508883507564279575059463036451E-0014
   152.069713142094729819879919946631091         2.11090137183951043353147943411365237E-0014
   153.360907271514342895263509006004004         2.15049779261524044640377182742209200E-0014
   154.652101400933955970647098065376917         2.19031074371961024771775813906648531E-0014
   155.943295530353569046030687124749830         2.23033668809098438369525780858962056E-0014
   157.234489659773182121414276184122743         2.27057215788822835820307587980770534E-0014
   158.525683789192795196797865243495656         2.31101375332196572080242750217107796E-0014
   159.816877918612408272181454302868594         2.35165814148051132258164343775883155E-0014
   161.108072048032021347565043362241507         2.39250205515311604070126198132851484E-0014
   162.399266177451634422948632421614420         2.43354229165291329657424679876630413E-0014
   163.690460306871247498332221480987333         2.47477571164173116249822499855820887E-0014
   164.981654436290860573715810540360246         2.51619923795872451183475325713430905E-0014
   166.272848565710473649099399599733159         2.55780985445458833875999381886737066E-0014
   167.564042695130086724482988659106072         2.59960460483293494784604157846888327E-0014
   168.855236824549699799866577718478985         2.64158059150025315289022070995786782E-0014
   170.146430953969312875250166777851898         2.68373497442571595565889689462334332E-0014
   171.437625083388925950633755837224811         2.72606497001196348789727818989855671E-0014
   172.728819212808539026017344896597724         2.76856784997785944228828830710876854E-0014
   174.020013342228152101400933955970661         2.81124094025410099387116247266480364E-0014
   175.311207471647765176784523015343574         2.85408161989245357910974267224755181E-0014
   176.602401601067378252168112074716487         2.89708731998928216116926606865031786E-0014
   177.893595730486991327551701134089400         2.94025552262395911942867414438357801E-0014
   179.184789859906604402935290193462313         2.98358375981264505501559330621887459E-0014
   180.475983989326217478318879252835226         3.02706961247786203951170060968847288E-0014
   181.767178118745830553702468312208139         3.07071070943420862681990149161629546E-0014
   183.058372248165443629086057371581052         3.11450472639050181055106672376770212E-0014
   184.349566377585056704469646430953965         3.15844938496857258707909851545994328E-0014
   185.640760507004669779853235490326878         3.20254245173888845522063587479778764E-0014
   186.931954636424282855236824549699816         3.24678173727312765454672848259423346E-0014
   188.223148765843895930620413609072729         3.29116509521378585055078077153256989E-0014
   189.514342895263509006004002668445642         3.33569042136085597706945791987049941E-0014
   190.805537024683122081387591727818555         3.38035565277558572941595874389630283E-0014
   192.096731154102735156771180787191468         3.42515876690128447309952326126940800E-0014
   193.387925283522348232154769846564381         3.47009778070112182123843256310709321E-0014
   194.679119412941961307538358905937294         3.51517074981283358687184750938400229E-0014
   195.970313542361574382921947965310207         3.56037576772022700062489453578837230E-0014
   197.261507671781187458305537024683120         3.60571096494135578285467732449464935E-0014
   198.552701801200800533689126084056033         3.65117450823321667158914122312928659E-0014
   199.843895930620413609072715143428946         3.69676459981280214706858594401775564E-0014
   201.135090060040026684456304202801883         3.80976990524906529350329974176163198E-0014
   202.426284189459639759839893262174796         3.86506503814899937887956944403244258E-0014
   203.717478318879252835223482321547709         3.92036017104893346425583914630325319E-0014
   205.008672448298865910607071380920622         3.97565530394886754963210884857406379E-0014
   206.299866577718478985990660440293535         4.03095043684880163500837855084487494E-0014
   207.591060707138092061374249499666448         4.08624556974873572038464825311568555E-0014
   208.882254836557705136757838559039361         4.14154070264866980576091795538649615E-0014
   210.173448965977318212141427618412274         4.19683583554860389113718765765730676E-0014
   211.464643095396931287525016677785187         4.25213096844853797651345735992811736E-0014
   212.755837224816544362908605737158100         4.30742610134847206188972706219892797E-0014
   214.047031354236157438292194796531013         4.36272123424840614726599676446973912E-0014
   215.338225483655770513675783855903951         4.41801636714834023264226646674055082E-0014
   216.629419613075383589059372915276864         4.47331150004827431801853616901136142E-0014
   217.920613742494996664442961974649777         4.52860663294820840339480587128217203E-0014
   219.211807871914609739826551034022690         4.58390176584814248877107557355298263E-0014
   220.503002001334222815210140093395603         4.63919689874807657414734527582379323E-0014
   221.794196130753835890593729152768516         4.69449203164801065952361497809460384E-0014
   223.085390260173448965977318212141429         4.74978716454794474489988468036541444E-0014
   224.376584389593062041360907271514342         4.80508229744787883027615438263622505E-0014
   225.667778519012675116744496330887255         4.86037743034781291565242408490703620E-0014
   226.958972648432288192128085390260168         4.91567256324774700102869378717784680E-0014
   228.250166777851901267511674449633081         4.97096769614768108640496348944865741E-0014
   229.541360907271514342895263509006018         5.02626282904761517178123319171946911E-0014
   230.832555036691127418278852568378931         5.08155796194754925715750289399027971E-0014
   232.123749166110740493662441627751844         5.13685309484748334253377259626109086E-0014
   233.414943295530353569046030687124757         5.19214822774741742791004229853190147E-0014
   234.706137424949966644429619746497670         5.24744336064735151328631200080271207E-0014
   235.997331554369579719813208805870583         5.30045596475168957609858615202917133E-0014
   237.288525683789192795196797865243496         5.35089841420400659442379708932415725E-0014
   238.579719813208805870580386924616409         5.40134086365632361274900802661914317E-0014
   239.870913942628418945963975983989322         5.45178331310864063107421896391412909E-0014
   241.162108072048032021347565043362235         5.50222576256095764939942990120911501E-0014
   242.453302201467645096731154102735173         5.55266821201327466772464083850410202E-0014
   243.744496330887258172114743162108086         5.60311066146559168604985177579908794E-0014
   245.035690460306871247498332221480999         5.65355311091790870437506271309407386E-0014
   246.326884589726484322881921280853912         5.70399556037022572270027365038906033E-0014
   247.618078719146097398265510340226825         5.75443800982254274102548458768404625E-0014
   248.909272848565710473649099399599738         5.80488045927485975935069552497903217E-0014
   250.200466977985323549032688458972651         5.85532290872717677767590646227401809E-0014
   251.491661107404936624416277518345564         5.90576535817949379600111739956900401E-0014
   252.782855236824549699799866577718477         5.95620780763181081432632833686398993E-0014
   254.074049366244162775183455637091390         6.00665025708412783265153927415897585E-0014
   255.365243495663775850567044696464303         6.05709270653644485097675021145396177E-0014
   256.656437625083388925950633755837216         6.10753515598876186930196114874894769E-0014
   257.947631754503002001334222815210154         6.15797760544107888762717208604393361E-0014
   259.238825883922615076717811874583042         6.20842005489339590595238302333891953E-0014
   260.530020013342228152101400933955980         6.25886250434571292427759396063390545E-0014
   261.821214142761841227484989993328868         6.30930495379802994260280489792889137E-0014
   263.112408272181454302868579052701806         6.35974740325034696092801583522387729E-0014
   264.403602401601067378252168112074743         6.41018985270266397925322677251886431E-0014
   265.694796531020680453635757171447632         6.46063230215498099757843770981384913E-0014
   266.985990660440293529019346230820569         6.51107475160729801590364864710883615E-0014
   268.277184789859906604402935290193458         6.56151720105961503422885958440382097E-0014
   269.568378919279519679786524349566395         6.61195965051193205255407052169880799E-0014
   270.859573048699132755170113408939283         6.66240209996424907087928145899379281E-0014
   272.150767178118745830553702468312221         6.71284454941656608920449239628877983E-0014
   273.441961307538358905937291527685109         6.76328699886888310752970333358376465E-0014
   274.733155436957971981320880587058047         6.81372944832120012585491427087875167E-0014
   276.024349566377585056704469646430935         6.86417189777351714418012520817373649E-0014
