 # lamda[mkm], Qabs
 # a(cm)=   9.99999999999999999999999999999999861E-0008
   9.99999999999999999999999999999999943E-0004   1.62899999999999999999999999999999976E-0003
   1.00693514841637098767567412997787337E-0003   1.65908326926982695917270955754857419E-0003
   1.01391839311629906836958701151609959E-0003   1.68972209599205472562921031586670536E-0003
   1.02095006765464898638535809316148549E-0003   1.72092673982563691051705445248226073E-0003
   1.02803050789953797803090305888378608E-0003   1.75270764989796353878075596985085791E-0003
   1.03516005204837852097502366394324101E-0003   1.78507546830383587468010952328999119E-0003
   1.04233904064403234245179216143979947E-0003   1.81804103366905794580108959705316566E-0003
   1.04956781659107645790935240946032695E-0003   1.85161538477983806300566490661834847E-0003
   1.05684672517218201705089684050422450E-0003   1.88580976427921567077631477084081200E-0003
   1.06417611406460673960382649655966524E-0003   1.91964508717414962324292761815769144E-0003
   1.07155633335680172857871765462916341E-0003   1.95366672904965969104917685945716398E-0003
   1.07898773556513345424296234336899333E-0003   1.98829133244323315214500916298297915E-0003
   1.08647067565072170753508223379331393E-0003   2.02352958357023831938195735999768986E-0003
   1.09400551103639432718499873742232219E-0003   2.05939235803656923060431360179161560E-0003
   1.10159260162375951038324124783789242E-0003   2.09589072419519144134843326978049556E-0003
   1.10923230981039652245845673529245650E-0003   2.13303594656217547995471382770992405E-0003
   1.11692500050716562667791561539518934E-0003   2.17083948929327225786758373883512527E-0003
   1.12467104115563806098026108904003826E-0003   2.20914060812925277581216046353551140E-0003
   1.13247080174564689418379399208043431E-0003   2.24778301228380148632217539368572609E-0003
   1.14032465483295959998739648659664959E-0003   2.28710135141204478068127814307881193E-0003
   1.14823297555707319289505145719033450E-0003   2.32710744900423021679473137233006230E-0003
   1.15619614165913277604908794444194921E-0003   2.36781333536772101384764044031727503E-0003
   1.16421453349997435685205597822858711E-0003   2.40923125124465195888345821051477261E-0003
   1.17228853407829279219278833000925993E-0003   2.45137365149286554150363159260900730E-0003
   1.18041852904893573106902550211723101E-0003   2.49425320883123521777972412322584760E-0003
   1.18860490674132442841724919645986689E-0003   2.53788281765050206644168014494689463E-0003
   1.19684805817800231002037601758737363E-0003   2.58044390986618368087248939614598799E-0003
   1.20514837709331217446599672222158653E-0003   2.62362471656755944782447648824770041E-0003
   1.21350625995220292427219839282600106E-0003   2.66752810517054231911146116535234838E-0003
   1.22192210596916672448497097178502191E-0003   2.71216616726499398909128912435393206E-0003
   1.23039631712730749328107116574286680E-0003   2.75755119677983980462928453628729320E-0003
   1.23892929819754163538329338660873578E-0003   2.80369569336898386377961742801608251E-0003
   1.24752145675793193541167877033414573E-0003   2.85061236585388356938619758042470329E-0003
   1.25617320321315553465458111848469776E-0003   2.89831413572373176941922586001542931E-0003
   1.26488495081410692114800664495060263E-0003   2.94600685909318810038524547071943882E-0003
   1.27365711567763686940055859188367300E-0003   2.99408894447349992954307491743859975E-0003
   1.28249011680642827259495613766657343E-0003   3.04295578258695075066287392826519384E-0003
   1.29138437610900981663576972421827223E-0003   3.09262018146479166427699345943481373E-0003
   1.30034031841990845199703430108944367E-0003   3.14309515817948841312638883142764963E-0003
   1.30935837151994162595308250545974637E-0003   3.19439394225650486100988869172149280E-0003
   1.31843896615665024445159813717777187E-0003   3.24652997914177054583133018654874589E-0003
   1.32758253606487333960984530937854978E-0003   3.29951693372574113243050264861106346E-0003
   1.33678951798746542558360143232898540E-0003   3.35306729849156922836463524813389771E-0003
   1.34606035169615753237383602204353938E-0003   3.40677980652423822944538099150196794E-0003
   1.35539548001256291399895775907613373E-0003   3.46135273078549214747082460271609311E-0003
   1.36479534882932843437082705761584773E-0003   3.51679985421181129010561788978542798E-0003
   1.37426040713143264117103071482706995E-0003   3.57313518052739673200738021813876828E-0003
   1.38379110701763154503047135862690925E-0003   3.63037293778095057287483800605788983E-0003
   1.39338790372205312837047206712067770E-0003   3.68852758193911158624987380310634922E-0003
   1.40305125563594161536767268403116782E-0003   3.74761380053745381709724795743762969E-0003
   1.41278162432955254165833832804167243E-0003   3.80764651638997022428275840846657180E-0003
   1.42257947457419966960065406968695192E-0003   3.82231965378796953349086381937367843E-0003
   1.43244527436445480216648677653103523E-0003   3.83599218581645029841672033957506589E-0003
   1.44237949494050155583730214115838980E-0003   3.84971362483047963570471428219253893E-0003
   1.45238261081064416023278074484890237E-0003   3.86348414577155561358377293093608549E-0003
   1.46245509977397235960553292982236303E-0003   3.87730392420694636979489797584862373E-0003
   1.47259744294318349879152194776071352E-0003   3.89117313633192850662162548537428471E-0003
   1.48281012476756288371372446799589817E-0003   3.90509195897203349271492444053180122E-0003
   1.49309363305612351409654568126382679E-0003   3.91906056958530210035303575735002463E-0003
   1.50344845900090629366092402730113766E-0003   3.96847517555846747067092473777983727E-0003
   1.51387509720044183073527161413535091E-0003   4.03263455329981535893569476300187276E-0003
   1.52437404568337494993576681269498763E-0003   4.09783121250823899346489028889663723E-0003
   1.53494580593225304334141397050831306E-0003   4.16408192318494188356788557210106434E-0003
   1.54559088290747939741508291769933488E-0003   4.23140372645613004972586462708471198E-0003
   1.55630978507143263980181173665997917E-0003   4.29981393895636096284534928338151310E-0003
   1.56710302441275345807037652546434159E-0003   4.36933015728275923407068139072222880E-0003
   1.57797111647079975045388060641436962E-0003   4.43997026252124477647593435122478359E-0003
   1.58891458036027137669027444562164150E-0003   4.39651272440482261065615175084174607E-0003
   1.59993393879600568516467073445710784E-0003   4.15518289808637551154257699547925143E-0003
   1.61102971811794500071245358127952653E-0003   3.92709995372225645017134703243229749E-0003
   1.62220244831627726565588619782503115E-0003   3.71153675416498185318033280451702449E-0003
   1.63345266305675103491759016685898562E-0003   3.50780607569221026535760134226046640E-0003
   1.64478089970616603438229639486231642E-0003   3.31525841711123922661011000735912455E-0003
   1.65618769935804050006405097407537460E-0003   3.13327992912436897540666456288253807E-0003
   1.66767360685845652407999894930157369E-0003   2.96129045735387058656414761847880861E-0003
   1.67923917083208464193436873148375417E-0003   2.80294498745949647346644985615691938E-0003
   1.69088494370838890417774574432965513E-0003   2.84918143208368681509607716861802110E-0003
   1.70261148174801368412756477081814048E-0003   2.89618057766028630992892085873660994E-0003
   1.71441934506935348201637815795347768E-0003   2.94395500544954396691226115470136277E-0003
   1.72630909767530699467528617105887087E-0003   2.99251750424797704443768891053808076E-0003
   1.73828130748021672866136386914312075E-0003   3.04188107381182003608942323532221759E-0003
   1.75033654633699544360040630183262130E-0003   3.09205892833694572778949238179406679E-0003
   1.76247539006444072144026392297709232E-0003   3.14306449999618987077380582844822413E-0003
   1.77469841847473896629587912902027924E-0003   3.19491144253502638127909130982441153E-0003
   1.78700621540116014861529197041014791E-0003   3.24603189921600360501735197463996170E-0003
   1.79939936872594461650679053716840229E-0003   3.29737934510847094124458481905711482E-0003
   1.81187847040838330624147446797757074E-0003   3.34953903200211779598971284419474429E-0003
   1.82444411651309269318321667656412830E-0003   3.40252380835381539777294543649889705E-0003
   1.83709690723848583369978996953358657E-0003   3.45634672586410739757248103079931667E-0003
   1.84983744694544085797521604598772434E-0003   3.51102104269222555465898027025926524E-0003
   1.86266634418616828307464180234924271E-0003   3.56656022672196223748835419225459056E-0003
   1.87558421173327852510970239961446077E-0003   3.62297795887920421959654906519224794E-0003
   1.88859166660905099891484579270069318E-0003   3.67975707967899559167484836472188713E-0003
   1.90168933011490620327392612644129245E-0003   3.73643422543749836468886917499551878E-0003
   1.91487782786108219943198349155241262E-0003   3.79398433611780809417230323251192480E-0003
   1.92815778979651690038997811761946766E-0003   3.85242085748795891051904394076487137E-0003
   1.94152985023893759831080448164029853E-0003   3.91175744241328463106448491403668975E-0003
   1.95499464790515916726364458674588128E-0003   3.97200795404621732188978274961186385E-0003
   1.96855282594159238850110262967474350E-0003   4.03318646906521646094380619923811131E-0003
   1.98220503195496385550007151971018825E-0003   4.09530728096358543239504309935925131E-0003
   1.99595191804324892610339463017778781E-0003   4.15818712499381839254461621873091571E-0003
   2.00979414082681919927558647499037662E-0003   4.21932482186958394519050689176984711E-0003
   2.02373236147980600423264977359194907E-0003   4.28136142441431420314624414402058064E-0003
   2.03776724576168140002386303540578530E-0003   4.34431014921029781295936496141394673E-0003
   2.05189946404905819403280519127296416E-0003   4.40818440716282462523832155029057493E-0003
   2.06612969136771049832632817397289923E-0003   4.47299780635731077981097149727718778E-0003
   2.08045860742481635331418439391069787E-0003   4.53876415495843201276962511259746662E-0003
   2.09488689664142395878906692603166700E-0003   4.60549746415188283099165024772312095E-0003
   2.10941524818514306309743256604229592E-0003   4.67321195112938828094865435036196951E-0003
   2.12404435600306307194616188780545658E-0003   4.73826305240130356950289522147729888E-0003
   2.13877491885489944917937973709560622E-0003   4.80301195522018693148071721348583427E-0003
   2.15360764034636999276413149007692076E-0003   4.86864565915076132245513136543919261E-0003
   2.16854322896280258020360573551118526E-0003   4.93517625510072041478567445376155475E-0003
   2.18358239810297598865273726757497598E-0003   5.00261599920138489177393806668147814E-0003
   2.19872586611319540614384349823659355E-0003   5.07097731506550207811955540043609669E-0003
   2.21397435632160426153997437381155946E-0003   5.14027279607589865878435860335471614E-0003
   2.22932859707273401212142605681187732E-0003   5.21051520770540809722233187515830697E-0003
   2.24478932176229353907692117216430676E-0003   5.05447605965073528450626467216716764E-0003
   2.26035726887219981261583621609213849E-0003   4.55465143651062398682177859313997415E-0003
   2.27603318200585149994210645131895598E-0003   4.10425323283493036934253283602881969E-0003
   2.29181780992364720093461071984950725E-0003   3.69839379237790010663162332890088126E-0003
   2.30771190657875000806348736799493872E-0003   3.33266878711855265453626665640802159E-0003
   2.32371623115310009883751601508894257E-0003   3.00310942212920777608287043328480856E-0003
   2.33983154809367708092498019566856484E-0003   2.70613936678622731015464830323060118E-0003
   2.35605862714901382201986885041958375E-0003   2.43853594494669248836348958064449877E-0003
   2.37239824340596350853745004406466342E-0003   2.22004375678626228110781899377988585E-0003
   2.38885117732672168931873191047293884E-0003   2.25603823816833397155953506772878534E-0003
   2.40541821478610507270269140758719235E-0003   2.29261631286292659240594069251319941E-0003
   2.42210014710908885758898275501259515E-0003   2.32978744290814548472526844035308905E-0003
   2.43889777110860439146272020751029711E-0003   2.36756124375400662336540987393574395E-0003
   2.45581188912359896078745393289661966E-0003   2.40594748674976694285104778595907846E-0003
   2.47284330905735953169321714833259145E-0003   2.44495610167158277161444172753768862E-0003
   2.48999284441610227149411537909631740E-0003   2.48459717929115023073616615813213912E-0003
   2.50726131434782969426495694065635560E-0003   2.52488097398599205462104116105318275E-0003
   2.52464954368145728648949388656159231E-0003   2.56566949505645131776111773183118285E-0003
   2.54215836296621148166456529500996775E-0003   2.60706025129913541940089905550351175E-0003
   2.55978860851130086570542470412110528E-0003   2.64911874541906453940104750734912838E-0003
   2.57754112242586250804840983193790983E-0003   2.69185574972177698239935376860681403E-0003
   2.59541675265918532648849880746675199E-0003   2.73528221029742109996127734382072498E-0003
   2.61341635304121240702182069228328346E-0003   2.77940924982434181918075042391778677E-0003
   2.63154078332332421328748114021312189E-0003   2.82424817041789613270184298834740226E-0003
   2.64979090921940463361976306054849391E-0003   2.86981045652522720802286786087888336E-0003
   2.66816760244719182723150796716106631E-0003   2.91666924701071982650532823886992517E-0003
   2.68667174076991584465292160507787859E-0003   2.96518885998560286500754943055436105E-0003
   2.70530420803822501124782721616742056E-0003   3.01451561036409969973823337754527717E-0003
   2.72406589423240307642216571134302124E-0003   3.06466292510385423574203029709975180E-0003
   2.74295769550487914502797287043132270E-0003   3.11564445452372590845307495795609320E-0003
   2.76198051422303242145081287383513340E-0003   3.16747407601946630429265332772747775E-0003
   2.78113525901229381095038296425144962E-0003   3.22016589784120710655032104706145845E-0003
   2.80042284479954643700339845644853329E-0003   3.27373426293378761532343901294605603E-0003
   2.81984419285682714767559793760451103E-0003   3.32792923311548583272127239525746224E-0003
   2.83940023084533109842645730613807187E-0003   3.38045068880448819488777905824950486E-0003
   2.85909189285972151322665498910083313E-0003   3.43380103931500376228561439370663970E-0003
   2.87892011947274674044518072523728533E-0003   3.48799336628416764721261711917062434E-0003
   2.89888585778016673464092296637429141E-0003   3.54304095780381306508754807024346850E-0003
   2.91899006144599111017330632619047990E-0003   3.59895731167874412772650335839112174E-0003
   2.93923369074803092742878654712961416E-0003   3.65575613873643077277290918129479519E-0003
   2.95961771262376638744545701365224579E-0003   3.71345136618893737461642256701022211E-0003
   2.98014310071653262580739369341181809E-0003   3.77205714104790938996320742792402287E-0003
   3.00081083542202581187438528158122969E-0003   3.82890438430274561774689169006705173E-0003
   3.02162190393513177471208800019958405E-0003   3.88576909162604882787854973710406741E-0003
   3.04257730029707939249314073994538363E-0003   3.94347832119760185440660748951827009E-0003
   3.06367802544292099765211187010011967E-0003   4.00204461538087337638609551150097180E-0003
   3.08492508724934206569706503076073271E-0003   4.06148070281137133112150547932147520E-0003
   3.10631950058280247130877364528370292E-0003   4.12179950116304915778054656544224645E-0003
   3.12786228734801161119593401040670806E-0003   4.18301411995579713104707282066259439E-0003
   3.14955447653673970912188110650269191E-0003   4.24513786340462895717214853439066690E-0003
   3.17139710427696763457606143721574331E-0003   4.30817170059807592779270460915375425E-0003
   3.19339121388237758273263025516210415E-0003   4.37212459132075526909442116738422215E-0003
   3.21553785590218697961978877655895361E-0003   4.43702683423179311539037766148482480E-0003
   3.23783808817132799281763810681359579E-0003   4.50289252204173556665464717030086007E-0003
   3.26029297586097504451018365879938235E-0003   4.56973595666114213364640527795741564E-0003
   3.28290359152942274033946534398324743E-0003   4.63757165230606679266586723929527839E-0003
   3.30567101517331664424740872032791166E-0003   4.70641433864963852388201185892751073E-0003
   3.32859633427923934634469006281900204E-0003   4.77627896402042565954035624806991186E-0003
   3.35168064387565428781648899987722081E-0003   4.84714477378891919675150407327873782E-0003
   3.37492504658520982396327653203503613E-0003   4.91859613376460105659303681642087187E-0003
   3.39833065267740602368157013994730655E-0003   4.99110075232459042824783424278645853E-0003
   3.42189858012162672101570317954521039E-0003   5.06467415546651415922945647406808890E-0003
   3.44562995464053935185793043529051261E-0003   5.13933209805544523076859416690978746E-0003
   3.46952590976386512644145887980582898E-0003   5.21509056719761884090675803099556903E-0003
   3.49358758688252210596009147061989558E-0003   5.29196578566388015717252247938308047E-0003
   3.51781613530314376945994712263845367E-0003   5.36997421536359682926600036541942662E-0003
   3.54221271230297567508402260814214030E-0003   5.44913256086978015860252236364018729E-0003
   3.56677848318515283781004873481855730E-0003   5.52814388912788501548287293973397123E-0003
   3.59151462133436046400702635795648439E-0003   5.60788871403121434588433035642676745E-0003
   3.61642230827288070144687619927410583E-0003   5.68878387749779440260653245305076131E-0003
   3.64150273371702808184567469962328834E-0003   5.77084597344217331952663947652075371E-0003
   3.66675709563397635157485691938613521E-0003   5.85409183515016680990179583062637337E-0003
   3.69218660029897940487743361987346531E-0003   5.93853853873184712665052628606729034E-0003
   3.71779246235298905274858606266193137E-0003   6.02420340662434223118755125966545836E-0003
   3.74357590486067237959486789552900407E-0003   6.11110401114516369522801955973487174E-0003
   3.76953815936883145887256413312336842E-0003   6.19841955505014059075230609535459378E-0003
   3.79568046596522821812444434634341918E-0003   6.28591578723079227037579698787907882E-0003
   3.82200407333781726318611872767886822E-0003   6.37464710693299985064011287510148482E-0003
   3.84851023883438949081938604792375347E-0003   6.46463094852105405380330276587881168E-0003
   3.87520022852262933865128242060550209E-0003   6.55588499246088043906333764743783188E-0003
   3.90207531725058854105493645704867500E-0003   6.64842716879398394446749816690787364E-0003
   3.92913678870757927950275353977026632E-0003   6.74227566066043126105013470125676178E-0003
   3.95638593548548963595483982223745592E-0003   6.83744890787156325203082628633117305E-0003
   3.98382405914052427801689202643760969E-0003   6.93379115741652577996961447355536762E-0003
   4.01145247025537332491298563962102393E-0003   7.02994382941431346202677032822408460E-0003
   4.03927248850181236377076187328855218E-0003   7.12742987533733469273878219017151187E-0003
   4.06728544270373660631041963455662565E-0003   7.22626778542603264592913945894731540E-0003
   4.09549267090063219676564644089239856E-0003   7.32647630632978813569875783622671825E-0003
   4.12389552041148770274516217420849597E-0003   7.42807444466260854885884220975315371E-0003
   4.15249534789914884176889917897468074E-0003   7.53108147060812443372151125151243793E-0003
   4.18129351943511951738400573771409982E-0003   7.63551692157457750724809287854910446E-0003
   4.21029141056481226008384864718058235E-0003   7.74140060590049332445917151300429635E-0003
   4.23949040637325118971902272394588882E-0003   7.84721743693367567544016310392295772E-0003
   4.26889190155123063770407590508983772E-0003   7.95401494499633606843905332675396264E-0003
   4.29849730046193258908826060493057619E-0003   8.06226592466470372306681562918507597E-0003
   4.32830801720800612647416472903633707E-0003   8.17199015710920967362719103871839227E-0003
   4.35832547569911207983560602859395678E-0003   8.28320769271414650159960677286938479E-0003
